,Request Id,request_scheduling_delay,cdf
0,0,0.0,0.0078125
1,1,0.0,0.015625
2,2,0.0,0.0234375
4,4,0.0,0.03125
6,6,0.0,0.0390625
8,8,0.0,0.046875
12,12,0.0,0.0546875
13,13,0.0,0.0625
14,14,0.0,0.0703125
17,17,0.0,0.078125
18,18,0.0,0.0859375
19,19,0.0,0.09375
21,21,0.0,0.1015625
22,22,0.0,0.109375
24,24,0.0,0.1171875
25,25,0.0,0.125
26,26,0.0,0.1328125
27,27,0.0,0.140625
29,29,0.0,0.1484375
30,30,0.0,0.15625
31,31,0.0,0.1640625
32,32,0.0,0.171875
33,33,0.0,0.1796875
34,34,0.0,0.1875
35,35,0.0,0.1953125
36,36,0.0,0.203125
37,37,0.0,0.2109375
38,38,0.0,0.21875
39,39,0.0,0.2265625
40,41,0.0,0.234375
41,40,0.0,0.2421875
46,45,0.0,0.25
47,47,0.0,0.2578125
50,50,0.0,0.265625
53,53,0.0,0.2734375
54,54,0.0,0.28125
55,55,0.0,0.2890625
57,57,0.0,0.296875
58,58,0.0,0.3046875
60,60,0.0,0.3125
63,63,0.0,0.3203125
64,64,0.0,0.328125
65,65,0.0,0.3359375
67,67,0.0,0.34375
68,68,0.0,0.3515625
69,69,0.0,0.359375
70,70,0.0,0.3671875
71,71,0.0,0.375
72,72,0.0,0.3828125
73,73,0.0,0.390625
76,76,0.0,0.3984375
77,77,0.0,0.40625
78,78,0.0,0.4140625
79,79,0.0,0.421875
83,83,0.0,0.4296875
84,84,0.0,0.4375
85,85,0.0,0.4453125
86,86,0.0,0.453125
87,87,0.0,0.4609375
88,88,0.0,0.46875
89,89,0.0,0.4765625
93,93,0.0,0.484375
94,94,0.0,0.4921875
95,95,0.0,0.5
96,96,0.0,0.5078125
97,97,0.0,0.515625
98,98,0.0,0.5234375
99,99,0.0,0.53125
102,102,0.0,0.5390625
103,103,0.0,0.546875
106,105,0.0,0.5546875
109,109,0.0,0.5625
110,110,0.0,0.5703125
111,111,0.0,0.578125
112,112,0.0,0.5859375
113,113,0.0,0.59375
114,114,0.0,0.6015625
115,115,0.0,0.609375
116,116,0.0,0.6171875
117,117,0.0,0.625
118,118,0.0,0.6328125
121,121,0.0,0.640625
122,122,0.0,0.6484375
123,123,0.0,0.65625
125,125,0.0,0.6640625
126,126,0.0,0.671875
127,127,0.0,0.6796875
107,107,0.0004561460178251764,0.6875
20,20,0.0020293494667953382,0.6953125
75,75,0.002390846198835561,0.703125
45,46,0.002731165872646102,0.7109375
90,90,0.0030382079310982135,0.71875
74,74,0.003058951461241577,0.7265625
3,3,0.003161862711333896,0.734375
42,42,0.0031755747660042744,0.7421875
43,44,0.003233306514943024,0.75
104,104,0.003285635776592244,0.7578125
61,61,0.004288478896413039,0.765625
23,23,0.004657248442676121,0.7734375
11,11,0.004676159560792925,0.78125
66,66,0.005329338422811247,0.7890625
5,5,0.005346804294610763,0.796875
28,28,0.005373890851906538,0.8046875
100,100,0.005431831204020909,0.8125
16,16,0.00556799052677448,0.8203125
124,124,0.005652969082035497,0.828125
119,119,0.005904045621605292,0.8359375
105,106,0.00642860931981204,0.84375
48,48,0.006510978540333667,0.8515625
51,51,0.006529450406659976,0.859375
81,81,0.006921463073581435,0.8671875
82,82,0.007038941114814179,0.875
91,91,0.007373541473214118,0.8828125
49,49,0.007382752362659062,0.890625
92,92,0.007597607415704033,0.8984375
120,120,0.008098472444345362,0.90625
101,101,0.008109031670727518,0.9140625
44,43,0.008205886087566228,0.921875
15,15,0.008339561868190515,0.9296875
59,59,0.008361190162077037,0.9375
52,52,0.009452641345092161,0.9453125
56,56,0.009522395182017362,0.953125
62,62,0.00953112358308772,0.9609375
10,10,0.010374118503579055,0.96875
80,80,0.010439671858847532,0.9765625
108,108,0.010687590679879122,0.984375
7,7,0.010715283943190101,0.9921875
9,9,0.1095331949419105,1.0
