,Request Id,request_scheduling_delay,cdf
0,0,0.0,0.0078125
1,1,0.0,0.015625
2,2,0.0,0.0234375
3,3,0.0,0.03125
4,4,0.0,0.0390625
5,5,0.0,0.046875
6,6,0.0,0.0546875
7,7,0.0,0.0625
8,8,0.0,0.0703125
10,10,0.0,0.078125
11,11,0.0,0.0859375
13,13,0.0,0.09375
14,14,0.0,0.1015625
15,15,0.0,0.109375
16,16,0.0,0.1171875
18,18,0.0,0.125
19,19,0.0,0.1328125
20,20,0.0,0.140625
21,21,0.0,0.1484375
22,22,0.0,0.15625
23,23,0.0,0.1640625
24,24,0.0,0.171875
25,25,0.0,0.1796875
26,26,0.0,0.1875
27,27,0.0,0.1953125
28,28,0.0,0.203125
29,29,0.0,0.2109375
30,30,0.0,0.21875
31,31,0.0,0.2265625
32,32,0.0,0.234375
33,33,0.0,0.2421875
34,34,0.0,0.25
35,35,0.0,0.2578125
36,36,0.0,0.265625
37,37,0.0,0.2734375
38,38,0.0,0.28125
39,39,0.0,0.2890625
40,40,0.0,0.296875
42,42,0.0,0.3046875
43,43,0.0,0.3125
44,44,0.0,0.3203125
45,45,0.0,0.328125
46,46,0.0,0.3359375
47,47,0.0,0.34375
50,50,0.0,0.3515625
51,51,0.0,0.359375
52,52,0.0,0.3671875
53,53,0.0,0.375
54,54,0.0,0.3828125
55,55,0.0,0.390625
56,56,0.0,0.3984375
58,58,0.0,0.40625
59,59,0.0,0.4140625
60,60,0.0,0.421875
61,61,0.0,0.4296875
62,62,0.0,0.4375
63,63,0.0,0.4453125
64,64,0.0,0.453125
65,65,0.0,0.4609375
66,66,0.0,0.46875
67,67,0.0,0.4765625
68,68,0.0,0.484375
69,69,0.0,0.4921875
70,70,0.0,0.5
71,71,0.0,0.5078125
72,72,0.0,0.515625
74,74,0.0,0.5234375
75,75,0.0,0.53125
76,76,0.0,0.5390625
77,77,0.0,0.546875
78,78,0.0,0.5546875
79,79,0.0,0.5625
80,80,0.0,0.5703125
82,82,0.0,0.578125
83,83,0.0,0.5859375
84,84,0.0,0.59375
85,85,0.0,0.6015625
86,86,0.0,0.609375
87,88,0.0,0.6171875
88,90,0.0,0.625
89,87,0.0,0.6328125
91,91,0.0,0.640625
92,92,0.0,0.6484375
93,93,0.0,0.65625
94,94,0.0,0.6640625
95,95,0.0,0.671875
96,96,0.0,0.6796875
97,97,0.0,0.6875
98,98,0.0,0.6953125
99,99,0.0,0.703125
100,100,0.0,0.7109375
101,101,0.0,0.71875
102,102,0.0,0.7265625
103,103,0.0,0.734375
104,104,0.0,0.7421875
105,106,0.0,0.75
107,107,0.0,0.7578125
108,108,0.0,0.765625
109,109,0.0,0.7734375
110,110,0.0,0.78125
111,111,0.0,0.7890625
112,112,0.0,0.796875
114,114,0.0,0.8046875
115,115,0.0,0.8125
116,116,0.0,0.8203125
117,117,0.0,0.828125
118,118,0.0,0.8359375
119,119,0.0,0.84375
120,120,0.0,0.8515625
122,122,0.0,0.859375
123,123,0.0,0.8671875
124,124,0.0,0.875
125,125,0.0,0.8828125
126,126,0.0,0.890625
127,127,0.0,0.8984375
49,49,0.0008014558393796278,0.90625
12,12,0.0014545574026350039,0.9140625
57,57,0.0015565872867853159,0.921875
48,48,0.002281846198982862,0.9296875
121,121,0.003872087052002371,0.9375
106,105,0.004043605973549802,0.9453125
9,9,0.00551676978572857,0.953125
73,73,0.00607789627477473,0.9609375
90,89,0.008045722293246627,0.96875
113,113,0.008196835075040099,0.9765625
41,41,0.00898963875812342,0.984375
81,81,0.009538756043440344,0.9921875
17,17,0.00999562705888124,1.0
