,Request Id,request_scheduling_delay,cdf
0,1,0.0,0.0078125
1,0,0.0,0.015625
2,2,0.0,0.0234375
3,3,0.0,0.03125
6,6,0.0,0.0390625
7,7,0.0,0.046875
8,8,0.0,0.0546875
11,11,0.0,0.0625
15,15,0.0,0.0703125
18,18,0.0,0.078125
19,19,0.0,0.0859375
20,20,0.0,0.09375
21,21,0.0,0.1015625
22,22,0.0,0.109375
23,23,0.0,0.1171875
24,24,0.0,0.125
25,25,0.0,0.1328125
26,26,0.0,0.140625
27,27,0.0,0.1484375
29,29,0.0,0.15625
30,30,0.0,0.1640625
31,31,0.0,0.171875
32,32,0.0,0.1796875
33,33,0.0,0.1875
34,34,0.0,0.1953125
35,35,0.0,0.203125
36,36,0.0,0.2109375
37,37,0.0,0.21875
38,38,0.0,0.2265625
39,39,0.0,0.234375
40,40,0.0,0.2421875
43,43,0.0,0.25
53,53,0.0,0.2578125
54,54,0.0,0.265625
55,55,0.0,0.2734375
56,56,0.0,0.28125
59,59,0.0,0.2890625
60,60,0.0,0.296875
61,61,0.0,0.3046875
62,62,0.0,0.3125
63,63,0.0,0.3203125
64,64,0.0,0.328125
65,65,0.0,0.3359375
66,66,0.0,0.34375
67,67,0.0,0.3515625
71,71,0.0,0.359375
72,72,0.0,0.3671875
74,74,0.0,0.375
75,75,0.0,0.3828125
76,76,0.0,0.390625
77,77,0.0,0.3984375
78,78,0.0,0.40625
79,79,0.0,0.4140625
83,83,0.0,0.421875
84,84,0.0,0.4296875
86,86,0.0,0.4375
87,88,0.0,0.4453125
88,87,0.0,0.453125
91,91,0.0,0.4609375
92,92,0.0,0.46875
94,94,0.0,0.4765625
95,95,0.0,0.484375
96,96,0.0,0.4921875
97,97,0.0,0.5
98,98,0.0,0.5078125
99,100,0.0,0.515625
100,99,0.0,0.5234375
102,102,0.0,0.53125
103,103,0.0,0.5390625
104,104,0.0,0.546875
107,107,0.0,0.5546875
109,109,0.0,0.5625
110,110,0.0,0.5703125
111,111,0.0,0.578125
112,112,0.0,0.5859375
114,114,0.0,0.59375
115,115,0.0,0.6015625
116,116,0.0,0.609375
118,118,0.0,0.6171875
119,119,0.0,0.625
120,120,0.0,0.6328125
122,122,0.0,0.640625
123,124,0.0,0.6484375
124,123,0.0,0.65625
127,127,0.0,0.6640625
4,4,0.0004915006688621659,0.671875
50,50,0.0005242715910043216,0.6796875
45,45,0.0008834174019654029,0.6875
48,48,0.0010730796816602606,0.6953125
49,49,0.0012615699848481654,0.703125
57,57,0.0015565872867853159,0.7109375
68,68,0.001605723482640542,0.71875
85,85,0.0017244293480587203,0.7265625
70,70,0.0019023721601314492,0.734375
82,82,0.0019349519851061814,0.7421875
80,80,0.002683882961548534,0.75
47,47,0.002716930144288199,0.7578125
125,126,0.0028066389994876317,0.765625
126,125,0.002904676386464189,0.7734375
69,69,0.0035756241869364658,0.78125
121,121,0.003872087052002371,0.7890625
28,28,0.00391325720284641,0.796875
105,105,0.004043605973549802,0.8046875
106,106,0.004097086017509355,0.8125
52,52,0.0047796495649521376,0.8203125
44,44,0.005177827247266009,0.828125
9,9,0.00551676978572857,0.8359375
42,42,0.005851848897520995,0.84375
73,73,0.00607789627477473,0.8515625
46,46,0.006222626341056525,0.859375
16,16,0.006271084995745468,0.8671875
5,5,0.0068735657884229084,0.875
93,93,0.0070510421019776,0.8828125
58,58,0.007647981876687027,0.890625
101,101,0.007882804786760289,0.8984375
51,51,0.007917905094075195,0.90625
89,89,0.008045722293246627,0.9140625
113,113,0.008196835075040099,0.921875
12,12,0.008216421216708625,0.9296875
117,117,0.0083105358105513,0.9375
90,90,0.008568060253992371,0.9453125
14,14,0.008671859105213287,0.953125
41,41,0.00898963875812342,0.9609375
108,108,0.009051989037942576,0.96875
13,13,0.009066714592293579,0.9765625
10,10,0.009243614259860422,0.984375
81,81,0.009538756043440344,0.9921875
17,17,0.00999562705888124,1.0
